Data from dark_beginning_ST026791__149__1247.txt Node

Date: Mon Aug 18 22:10:54 AEST 2025
User: mathewyoussef
Spectrometer: ST02679
Trigger mode: 0
Integration Time (sec): 6.653700E-1
Scans to average: 1
Nonlinearity correction enabled: true
Boxcar width: 0
Storing dark spectrum: false
XAxis mode: Wavelengths
Number of Pixels in Spectrum: 1516
>>>>>Begin Spectral Data<<<<<
187.304	597.97173
187.653	595.8511
188.002	612.80824
188.351	571.44303
188.7	580.99861
189.048	602.21215
189.397	600.09208
189.746	585.24363
190.094	572.50506
190.443	573.56701
190.791	584.18248
191.14	612.80824
191.488	580.99861
191.837	572.50506
192.185	589.48748
192.533	580.99861
192.881	560.81866
193.229	561.88144
193.577	614.92662
193.925	602.21215
194.273	555.50366
194.621	593.73018
194.969	595.8511
195.317	576.75242
195.664	577.81408
196.012	586.3047
196.359	609.63015
196.707	570.38093
197.054	554.44043
197.402	570.38093
197.749	560.81866
198.096	574.62889
198.443	596.91145
198.791	590.54827
199.138	585.24363
199.485	587.3657
199.832	584.18248
200.179	587.3657
200.525	600.09208
200.872	589.48748
201.219	591.60898
201.566	591.60898
201.912	574.62889
202.259	590.54827
202.605	582.05997
202.952	579.93717
203.298	573.56701
203.644	588.42663
203.991	594.79068
204.337	566.13178
204.683	555.50366
205.029	558.69289
205.375	574.62889
205.721	597.97173
206.067	585.24363
206.413	557.62989
206.759	569.31875
207.104	572.50506
207.45	574.62889
207.796	586.3047
208.141	592.66961
208.487	570.38093
208.832	567.19418
209.177	568.25651
209.523	577.81408
209.868	590.54827
210.213	569.31875
210.558	569.31875
210.903	585.24363
211.248	586.3047
211.593	583.12126
211.938	580.99861
212.283	600.09208
212.628	589.48748
212.973	552.31374
213.317	537.41832
213.662	552.31374
214.007	597.97173
214.351	592.66961
214.696	582.05997
215.04	603.27207
215.384	603.27207
215.729	571.44303
216.073	570.38093
216.417	578.87566
216.761	584.18248
217.105	583.12126
217.449	544.86793
217.793	562.94414
218.137	573.56701
218.481	565.06931
218.824	603.27207
219.168	597.97173
219.512	561.88144
219.855	572.50506
220.199	560.81866
220.542	553.37712
220.886	595.8511
221.229	589.48748
221.572	553.37712
221.916	564.00676
222.259	569.31875
222.602	560.81866
222.945	557.62989
223.288	561.88144
223.631	586.3047
223.974	591.60898
224.317	590.54827
224.659	604.33193
225.002	576.75242
225.345	531.0299
225.687	574.62889
226.03	615.9857
226.372	577.81408
226.715	564.00676
227.057	566.13178
227.4	567.19418
227.742	571.44303
228.084	550.18675
228.426	548.05945
228.768	573.56701
229.11	606.45143
229.452	588.42663
229.794	565.06931
230.136	571.44303
230.478	561.88144
230.82	578.87566
231.161	590.54827
231.503	618.10366
231.845	623.39736
232.186	609.63015
232.528	600.09208
232.869	553.37712
233.21	536.35378
233.552	550.18675
233.893	578.87566
234.234	610.68958
234.575	597.97173
234.916	580.99861
235.257	592.66961
235.598	579.93717
235.939	593.73018
236.28	572.50506
236.621	535.28916
236.961	574.62889
237.302	621.28009
237.643	607.51107
237.983	557.62989
238.324	532.09483
238.664	552.31374
239.005	566.13178
239.345	551.25029
239.685	565.06931
240.025	586.3047
240.366	580.99861
240.706	557.62989
241.046	569.31875
241.386	577.81408
241.726	559.75581
242.066	589.48748
242.405	595.8511
242.745	576.75242
243.085	584.18248
243.425	576.75242
243.764	614.92662
244.104	644.55518
244.443	607.51107
244.783	585.24363
245.122	565.06931
245.461	552.31374
245.801	559.75581
246.14	573.56701
246.479	564.00676
246.818	569.31875
247.157	613.86746
247.496	618.10366
247.835	607.51107
248.174	575.69069
248.513	565.06931
248.852	607.51107
249.19	602.21215
249.529	591.60898
249.868	604.33193
250.206	602.21215
250.545	576.75242
250.883	544.86793
251.221	560.81866
251.56	573.56701
251.898	561.88144
252.236	574.62889
252.574	569.31875
252.912	542.73986
253.25	576.75242
253.588	604.33193
253.926	607.51107
254.264	586.3047
254.602	570.38093
254.94	583.12126
255.278	569.31875
255.615	552.31374
255.953	560.81866
256.29	580.99861
256.628	572.50506
256.965	564.00676
257.303	585.24363
257.64	602.21215
257.977	593.73018
258.314	564.00676
258.652	562.94414
258.989	580.99861
259.326	573.56701
259.663	570.38093
260	594.79068
260.337	580.99861
260.673	545.93185
261.01	574.62889
261.347	601.15215
261.684	590.54827
262.02	593.73018
262.357	567.19418
262.693	538.48278
263.03	540.61148
263.366	557.62989
263.702	584.18248
264.039	577.81408
264.375	566.13178
264.711	586.3047
265.047	607.51107
265.383	575.69069
265.719	550.18675
266.055	531.0299
266.391	562.94414
266.727	613.86746
267.063	587.3657
267.399	557.62989
267.734	556.56681
268.07	551.25029
268.405	568.25651
268.741	596.91145
269.076	575.69069
269.412	568.25651
269.747	576.75242
270.082	566.13178
270.418	575.69069
270.753	590.54827
271.088	593.73018
271.423	592.66961
271.758	614.92662
272.093	632.92172
272.428	597.97173
272.763	560.81866
273.098	573.56701
273.433	595.8511
273.767	576.75242
274.102	568.25651
274.436	583.12126
274.771	589.48748
275.106	567.19418
275.44	566.13178
275.774	578.87566
276.109	560.81866
276.443	601.15215
276.777	610.68958
277.111	584.18248
277.445	577.81408
277.78	575.69069
278.114	575.69069
278.447	562.94414
278.781	573.56701
279.115	567.19418
279.449	570.38093
279.783	603.27207
280.116	601.15215
280.45	579.93717
280.784	593.73018
281.117	615.9857
281.451	586.3047
281.784	614.92662
282.117	613.86746
282.451	540.61148
282.784	535.28916
283.117	583.12126
283.45	586.3047
283.783	564.00676
284.116	580.99861
284.449	606.45143
284.782	605.39171
285.115	584.18248
285.448	576.75242
285.781	573.56701
286.114	564.00676
286.446	578.87566
286.779	584.18248
287.111	575.69069
287.444	589.48748
287.776	587.3657
288.109	596.91145
288.441	574.62889
288.773	577.81408
289.106	596.91145
289.438	577.81408
289.77	574.62889
290.102	582.05997
290.434	576.75242
290.766	578.87566
291.098	591.60898
291.43	612.80824
291.762	618.10366
292.094	574.62889
292.425	573.56701
292.757	575.69069
293.089	571.44303
293.42	597.97173
293.752	589.48748
294.083	568.25651
294.414	579.93717
294.746	597.97173
295.077	579.93717
295.408	578.87566
295.74	620.22135
296.071	613.86746
296.402	576.75242
296.733	578.87566
297.064	589.48748
297.395	572.50506
297.726	568.25651
298.056	612.80824
298.387	625.51436
298.718	611.74894
299.049	620.22135
299.379	618.10366
299.71	611.74894
300.04	602.21215
300.371	614.92662
300.701	584.18248
301.031	574.62889
301.362	597.97173
301.692	601.15215
302.022	606.45143
302.352	613.86746
302.682	609.63015
303.012	582.05997
303.342	597.97173
303.672	588.42663
304.002	577.81408
304.332	593.73018
304.662	588.42663
304.992	572.50506
305.321	548.05945
305.651	559.75581
305.98	570.38093
306.31	565.06931
306.639	551.25029
306.969	550.18675
307.298	570.38093
307.628	588.42663
307.957	576.75242
308.286	543.80393
308.615	544.86793
308.944	571.44303
309.273	579.93717
309.602	576.75242
309.931	588.42663
310.26	572.50506
310.589	583.12126
310.918	600.09208
311.247	600.09208
311.575	594.79068
311.904	577.81408
312.233	596.91145
312.561	578.87566
312.89	555.50366
313.218	609.63015
313.546	619.16254
313.875	570.38093
314.203	562.94414
314.531	557.62989
314.859	553.37712
315.188	566.13178
315.516	576.75242
315.844	585.24363
316.172	594.79068
316.5	603.27207
316.827	582.05997
317.155	582.05997
317.483	584.18248
317.811	583.12126
318.138	592.66961
318.466	591.60898
318.794	591.60898
319.121	577.81408
319.449	562.94414
319.776	561.88144
320.103	582.05997
320.431	587.3657
320.758	571.44303
321.085	549.12314
321.412	553.37712
321.739	591.60898
322.066	603.27207
322.393	579.93717
322.72	593.73018
323.047	617.04472
323.374	605.39171
323.701	593.73018
324.028	586.3047
324.354	577.81408
324.681	577.81408
325.008	596.91145
325.334	609.63015
325.661	588.42663
325.987	566.13178
326.314	579.93717
326.64	578.87566
326.966	571.44303
327.293	578.87566
327.619	565.06931
327.945	571.44303
328.271	592.66961
328.597	593.73018
328.923	580.99861
329.249	551.25029
329.575	536.35378
329.901	559.75581
330.227	580.99861
330.552	588.42663
330.878	568.25651
331.204	551.25029
331.529	553.37712
331.855	601.15215
332.18	631.86373
332.506	596.91145
332.831	588.42663
333.156	609.63015
333.482	608.57064
333.807	585.24363
334.132	551.25029
334.457	572.50506
334.782	600.09208
335.107	592.66961
335.432	593.73018
335.757	560.81866
336.082	552.31374
336.407	560.81866
336.732	552.31374
337.057	572.50506
337.381	586.3047
337.706	558.69289
338.031	549.12314
338.355	538.48278
338.68	550.18675
339.004	567.19418
339.329	574.62889
339.653	585.24363
339.977	551.25029
340.301	544.86793
340.626	566.13178
340.95	566.13178
341.274	584.18248
341.598	568.25651
341.922	556.56681
342.246	570.38093
342.57	562.94414
342.894	554.44043
343.218	559.75581
343.541	583.12126
343.865	608.57064
344.189	593.73018
344.512	593.73018
344.836	607.51107
345.159	566.13178
345.483	567.19418
345.806	583.12126
346.13	584.18248
346.453	596.91145
346.776	601.15215
347.099	591.60898
347.423	577.81408
347.746	573.56701
348.069	578.87566
348.392	575.69069
348.715	572.50506
349.038	589.48748
349.361	588.42663
349.683	574.62889
350.006	544.86793
350.329	549.12314
350.652	587.3657
350.974	610.68958
351.297	605.39171
351.619	582.05997
351.942	590.54827
352.264	590.54827
352.587	561.88144
352.909	555.50366
353.231	558.69289
353.554	556.56681
353.876	589.48748
354.198	608.57064
354.52	582.05997
354.842	573.56701
355.164	591.60898
355.486	574.62889
355.808	551.25029
356.13	569.31875
356.452	603.27207
356.773	597.97173
357.095	576.75242
357.417	565.06931
357.738	572.50506
358.06	589.48748
358.381	594.79068
358.703	605.39171
359.024	617.04472
359.346	593.73018
359.667	575.69069
359.988	599.03194
360.309	596.91145
360.631	566.13178
360.952	560.81866
361.273	570.38093
361.594	583.12126
361.915	587.3657
362.236	570.38093
362.557	561.88144
362.878	586.3047
363.198	599.03194
363.519	593.73018
363.84	605.39171
364.16	578.87566
364.481	544.86793
364.802	556.56681
365.122	596.91145
365.443	620.22135
365.763	592.66961
366.083	548.05945
366.404	546.99569
366.724	576.75242
367.044	592.66961
367.364	587.3657
367.685	569.31875
368.005	562.94414
368.325	554.44043
368.645	553.37712
368.965	556.56681
369.284	571.44303
369.604	572.50506
369.924	570.38093
370.244	597.97173
370.564	604.33193
370.883	601.15215
371.203	590.54827
371.522	597.97173
371.842	615.9857
372.161	603.27207
372.481	582.05997
372.8	561.88144
373.119	565.06931
373.439	585.24363
373.758	610.68958
374.077	602.21215
374.396	554.44043
374.715	541.6757
375.034	565.06931
375.353	595.8511
375.672	584.18248
375.991	549.12314
376.31	567.19418
376.629	584.18248
376.948	560.81866
377.266	559.75581
377.585	593.73018
377.904	591.60898
378.222	577.81408
378.541	579.93717
378.859	542.73986
379.178	567.19418
379.496	584.18248
379.814	566.13178
380.133	578.87566
380.451	572.50506
380.769	562.94414
381.087	538.48278
381.405	543.80393
381.723	574.62889
382.041	596.91145
382.359	587.3657
382.677	570.38093
382.995	584.18248
383.313	588.42663
383.631	576.75242
383.949	588.42663
384.266	587.3657
384.584	555.50366
384.901	551.25029
385.219	556.56681
385.537	562.94414
385.854	586.3047
386.171	575.69069
386.489	560.81866
386.806	576.75242
387.123	602.21215
387.441	591.60898
387.758	576.75242
388.075	566.13178
388.392	545.93185
388.709	566.13178
389.026	579.93717
389.343	586.3047
389.66	555.50366
389.977	557.62989
390.294	599.03194
390.61	570.38093
390.927	586.3047
391.244	594.79068
391.56	596.91145
391.877	596.91145
392.193	553.37712
392.51	566.13178
392.826	553.37712
393.143	545.93185
393.459	565.06931
393.775	557.62989
394.092	549.12314
394.408	554.44043
394.724	564.00676
395.04	546.99569
395.356	546.99569
395.672	565.06931
395.988	584.18248
396.304	592.66961
396.62	584.18248
396.936	577.81408
397.252	558.69289
397.567	566.13178
397.883	574.62889
398.199	587.3657
398.514	603.27207
398.83	583.12126
399.146	576.75242
399.461	579.93717
399.777	570.38093
400.092	565.06931
400.407	559.75581
400.723	555.50366
401.038	551.25029
401.353	569.31875
401.668	604.33193
401.983	609.63015
402.298	595.8511
402.613	591.60898
402.928	558.69289
403.243	555.50366
403.558	571.44303
403.873	549.12314
404.188	568.25651
404.503	573.56701
404.817	578.87566
405.132	597.97173
405.447	583.12126
405.761	573.56701
406.076	587.3657
406.39	594.79068
406.705	576.75242
407.019	601.15215
407.334	601.15215
407.648	597.97173
407.962	591.60898
408.276	572.50506
408.591	579.93717
408.905	568.25651
409.219	568.25651
409.533	570.38093
409.847	568.25651
410.161	580.99861
410.475	550.18675
410.789	539.54717
411.102	592.66961
411.416	649.84046
411.73	658.29348
412.044	605.39171
412.357	572.50506
412.671	572.50506
412.984	573.56701
413.298	569.31875
413.611	589.48748
413.925	602.21215
414.238	607.51107
414.552	600.09208
414.865	574.62889
415.178	560.81866
415.491	566.13178
415.804	587.3657
416.118	578.87566
416.431	553.37712
416.744	557.62989
417.057	567.19418
417.37	577.81408
417.683	575.69069
417.995	583.12126
418.308	592.66961
418.621	553.37712
418.934	536.35378
419.246	574.62889
419.559	602.21215
419.872	562.94414
420.184	543.80393
420.497	568.25651
420.809	590.54827
421.121	595.8511
421.434	546.99569
421.746	559.75581
422.058	602.21215
422.371	599.03194
422.683	584.18248
422.995	575.69069
423.307	584.18248
423.619	578.87566
423.931	546.99569
424.243	552.31374
424.555	556.56681
424.867	555.50366
425.179	575.69069
425.491	550.18675
425.802	543.80393
426.114	556.56681
426.426	551.25029
426.737	570.38093
427.049	567.19418
427.361	567.19418
427.672	580.99861
427.984	559.75581
428.295	564.00676
428.606	554.44043
428.918	556.56681
429.229	610.68958
429.54	619.16254
429.851	595.8511
430.163	590.54827
430.474	599.03194
430.785	583.12126
431.096	555.50366
431.407	554.44043
431.718	572.50506
432.029	570.38093
432.339	566.13178
432.65	579.93717
432.961	569.31875
433.272	576.75242
433.582	577.81408
433.893	551.25029
434.204	545.93185
434.514	564.00676
434.825	583.12126
435.135	582.05997
435.446	590.54827
435.756	583.12126
436.066	570.38093
436.377	607.51107
436.687	608.57064
436.997	578.87566
437.307	582.05997
437.617	561.88144
437.927	564.00676
438.237	574.62889
438.547	569.31875
438.857	578.87566
439.167	562.94414
439.477	544.86793
439.787	567.19418
440.097	580.99861
440.407	578.87566
440.716	582.05997
441.026	560.81866
441.336	573.56701
441.645	605.39171
441.955	574.62889
442.264	569.31875
442.574	590.54827
442.883	573.56701
443.192	568.25651
443.502	609.63015
443.811	628.68935
444.12	577.81408
444.429	566.13178
444.739	584.18248
445.048	583.12126
445.357	600.09208
445.666	591.60898
445.975	567.19418
446.284	564.00676
446.593	569.31875
446.901	572.50506
447.21	556.56681
447.519	560.81866
447.828	564.00676
448.136	567.19418
448.445	564.00676
448.754	540.61148
449.062	543.80393
449.371	561.88144
449.679	565.06931
449.988	558.69289
450.296	569.31875
450.605	572.50506
450.913	601.15215
451.221	662.51844
451.529	628.68935
451.838	590.54827
452.146	588.42663
452.454	578.87566
452.762	602.21215
453.07	592.66961
453.378	579.93717
453.686	594.79068
453.994	611.74894
454.302	574.62889
454.609	548.05945
454.917	562.94414
455.225	571.44303
455.533	568.25651
455.84	570.38093
456.148	604.33193
456.455	601.15215
456.763	583.12126
457.07	586.3047
457.378	571.44303
457.685	520.37619
457.993	487.29808
458.3	538.48278
458.607	610.68958
458.915	622.33876
459.222	619.16254
459.529	594.79068
459.836	568.25651
460.143	553.37712
460.45	526.76937
460.757	544.86793
461.064	580.99861
461.371	583.12126
461.678	587.3657
461.985	588.42663
462.292	571.44303
462.598	575.69069
462.905	573.56701
463.212	592.66961
463.518	577.81408
463.825	568.25651
464.131	576.75242
464.438	558.69289
464.744	571.44303
465.051	568.25651
465.357	555.50366
465.664	571.44303
465.97	596.91145
466.276	586.3047
466.582	579.93717
466.889	562.94414
467.195	549.12314
467.501	554.44043
467.807	591.60898
468.113	587.3657
468.419	559.75581
468.725	608.57064
469.031	606.45143
469.337	617.04472
469.642	619.16254
469.948	588.42663
470.254	568.25651
470.56	573.56701
470.865	586.3047
471.171	558.69289
471.477	566.13178
471.782	587.3657
472.088	604.33193
472.393	604.33193
472.698	578.87566
473.004	565.06931
473.309	584.18248
473.614	604.33193
473.92	594.79068
474.225	549.12314
474.53	560.81866
474.835	586.3047
475.14	573.56701
475.445	582.05997
475.75	572.50506
476.055	579.93717
476.36	593.73018
476.665	569.31875
476.97	578.87566
477.275	618.10366
477.58	601.15215
477.885	570.38093
478.189	556.56681
478.494	579.93717
478.799	590.54827
479.103	574.62889
479.408	571.44303
479.712	562.94414
480.017	571.44303
480.321	590.54827
480.625	593.73018
480.93	594.79068
481.234	586.3047
481.538	590.54827
481.843	590.54827
482.147	592.66961
482.451	588.42663
482.755	553.37712
483.059	592.66961
483.363	602.21215
483.667	561.88144
483.971	588.42663
484.275	593.73018
484.579	580.99861
484.883	580.99861
485.187	579.93717
485.49	571.44303
485.794	546.99569
486.098	569.31875
486.401	601.15215
486.705	583.12126
487.009	541.6757
487.312	556.56681
487.616	565.06931
487.919	548.05945
488.222	573.56701
488.526	602.21215
488.829	608.57064
489.132	589.48748
489.436	582.05997
489.739	580.99861
490.042	579.93717
490.345	592.66961
490.648	599.03194
490.951	578.87566
491.254	550.18675
491.557	577.81408
491.86	610.68958
492.163	593.73018
492.466	566.13178
492.769	569.31875
493.072	570.38093
493.375	555.50366
493.677	571.44303
493.98	575.69069
494.283	570.38093
494.585	560.81866
494.888	558.69289
495.19	571.44303
495.493	577.81408
495.795	588.42663
496.098	609.63015
496.4	594.79068
496.702	549.12314
497.005	561.88144
497.307	590.54827
497.609	573.56701
497.911	554.44043
498.213	575.69069
498.515	589.48748
498.818	588.42663
499.12	585.24363
499.422	577.81408
499.723	575.69069
500.025	573.56701
500.327	545.93185
500.629	551.25029
500.931	567.19418
501.233	576.75242
501.534	576.75242
501.836	585.24363
502.138	585.24363
502.439	556.56681
502.741	542.73986
503.042	541.6757
503.344	558.69289
503.645	595.8511
503.947	599.03194
504.248	583.12126
504.55	593.73018
504.851	606.45143
505.152	595.8511
505.453	577.81408
505.755	595.8511
506.056	584.18248
506.357	557.62989
506.658	571.44303
506.959	580.99861
507.26	586.3047
507.561	564.00676
507.862	556.56681
508.163	584.18248
508.464	569.31875
508.764	573.56701
509.065	567.19418
509.366	587.3657
509.667	611.74894
509.967	570.38093
510.268	561.88144
510.569	577.81408
510.869	564.00676
511.17	552.31374
511.47	571.44303
511.771	572.50506
512.071	587.3657
512.371	585.24363
512.672	567.19418
512.972	582.05997
513.272	567.19418
513.573	552.31374
513.873	559.75581
514.173	574.62889
514.473	568.25651
514.773	544.86793
515.073	536.35378
515.373	549.12314
515.673	568.25651
515.973	555.50366
516.273	556.56681
516.573	550.18675
516.873	534.22446
517.172	559.75581
517.472	576.75242
517.772	562.94414
518.072	570.38093
518.371	573.56701
518.671	564.00676
518.97	592.66961
519.27	582.05997
519.569	590.54827
519.869	612.80824
520.168	596.91145
520.468	601.15215
520.767	600.09208
521.066	555.50366
521.366	533.15969
521.665	554.44043
521.964	553.37712
522.263	536.35378
522.562	568.25651
522.861	566.13178
523.161	529.96488
523.46	560.81866
523.759	568.25651
524.057	561.88144
524.356	557.62989
524.655	566.13178
524.954	576.75242
525.253	585.24363
525.552	614.92662
525.85	612.80824
526.149	579.93717
526.448	569.31875
526.746	553.37712
527.045	538.48278
527.344	585.24363
527.642	600.09208
527.941	578.87566
528.239	573.56701
528.537	575.69069
528.836	569.31875
529.134	587.3657
529.432	599.03194
529.731	587.3657
530.029	574.62889
530.327	576.75242
530.625	571.44303
530.923	575.69069
531.221	603.27207
531.52	590.54827
531.818	592.66961
532.116	578.87566
532.413	561.88144
532.711	593.73018
533.009	593.73018
533.307	561.88144
533.605	545.93185
533.903	555.50366
534.2	566.13178
534.498	559.75581
534.796	572.50506
535.093	583.12126
535.391	576.75242
535.689	568.25651
535.986	593.73018
536.284	608.57064
536.581	573.56701
536.878	567.19418
537.176	566.13178
537.473	576.75242
537.77	601.15215
538.068	592.66961
538.365	594.79068
538.662	621.28009
538.959	596.91145
539.256	595.8511
539.554	600.09208
539.851	567.19418
540.148	560.81866
540.445	562.94414
540.742	588.42663
541.039	613.86746
541.335	594.79068
541.632	567.19418
541.929	579.93717
542.226	578.87566
542.523	575.69069
542.819	585.24363
543.116	578.87566
543.413	572.50506
543.709	551.25029
544.006	561.88144
544.302	587.3657
544.599	594.79068
544.895	584.18248
545.192	574.62889
545.488	595.8511
545.785	596.91145
546.081	571.44303
546.377	571.44303
546.673	588.42663
546.97	589.48748
547.266	593.73018
547.562	599.03194
547.858	586.3047
548.154	565.06931
548.45	550.18675
548.746	567.19418
549.042	570.38093
549.338	553.37712
549.634	582.05997
549.93	568.25651
550.226	546.99569
550.522	577.81408
550.818	578.87566
551.113	544.86793
551.409	541.6757
551.705	557.62989
552	580.99861
552.296	591.60898
552.592	608.57064
552.887	601.15215
553.183	551.25029
553.478	562.94414
553.774	578.87566
554.069	590.54827
554.364	584.18248
554.66	546.99569
554.955	544.86793
555.25	538.48278
555.546	537.41832
555.841	573.56701
556.136	582.05997
556.431	562.94414
556.726	553.37712
557.021	585.24363
557.316	588.42663
557.611	579.93717
557.906	619.16254
558.201	599.03194
558.496	568.25651
558.791	583.12126
559.086	587.3657
559.381	577.81408
559.675	567.19418
559.97	576.75242
560.265	595.8511
560.56	589.48748
560.854	572.50506
561.149	567.19418
561.443	566.13178
561.738	570.38093
562.032	577.81408
562.327	582.05997
562.621	590.54827
562.916	600.09208
563.21	573.56701
563.504	556.56681
563.799	570.38093
564.093	576.75242
564.387	560.81866
564.681	561.88144
564.976	571.44303
565.27	580.99861
565.564	621.28009
565.858	617.04472
566.152	552.31374
566.446	543.80393
566.74	556.56681
567.034	543.80393
567.328	583.12126
567.622	642.44061
567.916	620.22135
568.209	575.69069
568.503	593.73018
568.797	597.97173
569.091	603.27207
569.384	594.79068
569.678	583.12126
569.972	591.60898
570.265	576.75242
570.559	576.75242
570.852	587.3657
571.146	572.50506
571.439	557.62989
571.733	606.45143
572.026	611.74894
572.319	588.42663
572.613	599.03194
572.906	606.45143
573.199	624.4559
573.492	611.74894
573.786	593.73018
574.079	603.27207
574.372	608.57064
574.665	597.97173
574.958	589.48748
575.251	577.81408
575.544	596.91145
575.837	590.54827
576.13	549.12314
576.423	559.75581
576.716	579.93717
577.009	564.00676
577.301	554.44043
577.594	554.44043
577.887	565.06931
578.18	564.00676
578.472	561.88144
578.765	594.79068
579.057	594.79068
579.35	574.62889
579.643	569.31875
579.935	571.44303
580.228	610.68958
580.52	617.04472
580.813	568.25651
581.105	556.56681
581.397	561.88144
581.69	565.06931
581.982	572.50506
582.274	557.62989
582.566	552.31374
582.859	582.05997
583.151	605.39171
583.443	593.73018
583.735	620.22135
584.027	602.21215
584.319	561.88144
584.611	592.66961
584.903	604.33193
585.195	587.3657
585.487	584.18248
585.779	578.87566
586.071	565.06931
586.363	588.42663
586.654	579.93717
586.946	541.6757
587.238	520.37619
587.529	537.41832
587.821	582.05997
588.113	583.12126
588.404	562.94414
588.696	578.87566
588.987	607.51107
589.279	632.92172
589.57	614.92662
589.862	585.24363
590.153	590.54827
590.445	601.15215
590.736	606.45143
591.027	594.79068
591.319	608.57064
591.61	608.57064
591.901	578.87566
592.192	582.05997
592.484	592.66961
592.775	589.48748
593.066	589.48748
593.357	639.26825
593.648	627.63109
593.939	566.13178
594.23	569.31875
594.521	587.3657
594.812	594.79068
595.103	609.63015
595.393	597.97173
595.684	584.18248
595.975	606.45143
596.266	599.03194
596.557	603.27207
596.847	593.73018
597.138	572.50506
597.429	594.79068
597.719	593.73018
598.01	556.56681
598.3	540.61148
598.591	570.38093
598.881	604.33193
599.172	604.33193
599.462	594.79068
599.753	580.99861
600.043	558.69289
600.333	531.0299
600.624	578.87566
600.914	620.22135
601.204	584.18248
601.494	575.69069
601.785	591.60898
602.075	606.45143
602.365	575.69069
602.655	558.69289
602.945	568.25651
603.235	566.13178
603.525	574.62889
603.815	576.75242
604.105	577.81408
604.395	587.3657
604.685	589.48748
604.975	626.57276
605.265	627.63109
605.554	584.18248
605.844	611.74894
606.134	603.27207
606.424	571.44303
606.713	587.3657
607.003	590.54827
607.293	585.24363
607.582	595.8511
607.872	596.91145
608.161	568.25651
608.451	555.50366
608.74	566.13178
609.03	558.69289
609.319	564.00676
609.608	573.56701
609.898	574.62889
610.187	605.39171
610.476	618.10366
610.766	590.54827
611.055	585.24363
611.344	590.54827
611.633	592.66961
611.922	587.3657
612.211	576.75242
612.501	585.24363
612.79	606.45143
613.079	603.27207
613.368	582.05997
613.657	573.56701
613.946	576.75242
614.234	590.54827
614.523	593.73018
614.812	571.44303
615.101	564.00676
615.39	585.24363
615.679	572.50506
615.967	562.94414
616.256	562.94414
616.545	567.19418
616.833	575.69069
617.122	577.81408
617.411	590.54827
617.699	574.62889
617.988	566.13178
618.276	583.12126
618.565	592.66961
618.853	564.00676
619.141	550.18675
619.43	565.06931
619.718	580.99861
620.007	597.97173
620.295	610.68958
620.583	588.42663
620.871	578.87566
621.16	594.79068
621.448	580.99861
621.736	591.60898
622.024	608.57064
622.312	606.45143
622.6	591.60898
622.888	575.69069
623.176	565.06931
623.464	596.91145
623.752	658.29348
624.04	615.9857
624.328	569.31875
624.616	577.81408
624.904	550.18675
625.192	561.88144
625.479	613.86746
625.767	590.54827
626.055	589.48748
626.343	637.15301
626.63	619.16254
626.918	580.99861
627.206	608.57064
627.493	615.9857
627.781	583.12126
628.068	585.24363
628.356	576.75242
628.643	582.05997
628.931	608.57064
629.218	571.44303
629.505	549.12314
629.793	605.39171
630.08	611.74894
630.367	576.75242
630.655	579.93717
630.942	592.66961
631.229	600.09208
631.516	579.93717
631.804	590.54827
632.091	577.81408
632.378	560.81866
632.665	603.27207
632.952	600.09208
633.239	575.69069
633.526	570.38093
633.813	579.93717
634.1	578.87566
634.387	575.69069
634.674	591.60898
634.961	583.12126
635.247	560.81866
635.534	566.13178
635.821	596.91145
636.108	588.42663
636.394	572.50506
636.681	587.3657
636.968	583.12126
637.255	585.24363
637.541	602.21215
637.828	568.25651
638.114	534.22446
638.401	589.48748
638.687	609.63015
638.974	571.44303
639.26	592.66961
639.547	596.91145
639.833	570.38093
640.119	588.42663
640.406	591.60898
640.692	580.99861
640.978	604.33193
641.265	632.92172
641.551	614.92662
641.837	588.42663
642.123	557.62989
642.409	537.41832
642.696	580.99861
642.982	601.15215
643.268	570.38093
643.554	558.69289
643.84	585.24363
644.126	584.18248
644.412	614.92662
644.698	622.33876
644.984	573.56701
645.269	559.75581
645.555	560.81866
645.841	558.69289
646.127	572.50506
646.413	570.38093
646.698	578.87566
646.984	588.42663
647.27	571.44303
647.556	565.06931
647.841	582.05997
648.127	617.04472
648.412	596.91145
648.698	574.62889
648.984	570.38093
649.269	575.69069
649.554	556.56681
649.84	539.54717
650.125	593.73018
650.411	586.3047
650.696	578.87566
650.982	603.27207
651.267	605.39171
651.552	596.91145
651.837	562.94414
652.123	578.87566
652.408	593.73018
652.693	566.13178
652.978	553.37712
653.263	570.38093
653.549	589.48748
653.834	587.3657
654.119	575.69069
654.404	584.18248
654.689	573.56701
654.974	575.69069
655.259	587.3657
655.544	593.73018
655.828	597.97173
656.113	579.93717
656.398	591.60898
656.683	569.31875
656.968	551.25029
657.253	590.54827
657.537	589.48748
657.822	586.3047
658.107	574.62889
658.391	577.81408
658.676	599.03194
658.961	551.25029
659.245	545.93185
659.53	567.19418
659.814	575.69069
660.099	579.93717
660.383	561.88144
660.668	557.62989
